start,end,duration,pitch,velocity,instrument,instr program,midi channel
0.0,0.5,0.5,69,0,shadow,1,1
1.0,1.1166666666666667,0.1166666666666667,55,59,,0,0
1.1166666666666667,1.175,0.05833333333333335,62,31,,0,0
1.2333333333333334,1.2880208333333334,0.0546875,62,47,,0,0
1.34375,1.3984375,0.0546875,62,35,,0,0
1.4536458333333333,1.509375,0.05572916666666661,63,53,,0,0
1.5651041666666667,1.6208333333333333,0.05572916666666661,62,39,,0,0
1.6770833333333333,1.7338541666666667,0.05677083333333344,60,45,,0,0
1.790625,1.8473958333333333,0.05677083333333344,62,37,,0,0
1.9041666666666666,1.9609375,0.05677083333333344,62,49,,0,0
2.017708333333333,2.0744791666666664,0.05677083333333344,62,34,,0,0
2.1312499999999996,2.1880208333333333,0.05677083333333344,58,45,,0,0
2.244791666666667,2.3015625,0.056770833333333215,62,32,,0,0
2.3588541666666667,2.4755208333333334,0.1166666666666667,55,62,,0,0
2.4755208333333334,2.5338541666666665,0.058333333333333126,62,31,,0,0
2.5921875,2.6473958333333334,0.055208333333333304,62,47,,0,0
2.7026041666666667,2.7578125,0.055208333333333304,62,35,,0,0
2.8135416666666666,2.869270833333333,0.05572916666666661,63,53,,0,0
2.925520833333333,2.98125,0.05572916666666705,62,39,,0,0
3.0375,3.0942708333333333,0.056770833333333215,60,45,,0,0
3.1510416666666665,3.2078125,0.05677083333333366,62,37,,0,0
3.2645833333333334,3.3213541666666666,0.056770833333333215,62,49,,0,0
3.378125,3.4348958333333335,0.05677083333333366,62,34,,0,0
3.4921875,3.548958333333333,0.056770833333333215,58,45,,0,0
3.6057291666666664,3.6625,0.05677083333333366,62,32,,0,0
3.7192708333333333,3.8359375,0.1166666666666667,55,62,,0,0
3.8359375,3.894270833333333,0.058333333333333126,62,31,,0,0
3.9526041666666667,4.0078125,0.055208333333333304,62,46,,0,0
4.063541666666667,4.11875,0.055208333333333304,62,35,,0,0
4.173958333333333,4.2296875,0.05572916666666661,63,50,,0,0
4.285937499999999,4.341666666666667,0.05572916666666705,62,39,,0,0
4.397916666666667,4.454166666666667,0.05624999999999991,60,45,,0,0
4.5109375,4.5671875,0.056250000000000355,62,37,,0,0
4.6234375,4.680208333333333,0.056770833333333215,62,52,,0,0
4.736979166666667,4.79375,0.056770833333333215,62,40,,0,0
4.851041666666666,4.9078125,0.0567708333333341,58,48,,0,0
4.964583333333334,5.021354166666667,0.056770833333333215,62,37,,0,0
5.078125,5.134895833333333,0.056770833333333215,60,57,,0,0
5.191666666666666,5.2484375,0.056770833333333215,62,41,,0,0
5.305208333333333,5.360416666666667,0.05520833333333375,57,49,,0,0
5.416666666666667,5.471875,0.05520833333333286,62,35,,0,0
5.527604166666666,5.5828125,0.05520833333333375,58,53,,0,0
5.638541666666667,5.69375,0.05520833333333286,62,39,,0,0
5.75,5.805729166666667,0.05572916666666661,60,49,,0,0
5.861979166666667,5.917708333333334,0.05572916666666661,62,34,,0,0
5.974479166666667,6.030729166666666,0.05624999999999947,57,51,,0,0
6.0875,6.144270833333334,0.056770833333333215,62,38,,0,0
6.2015625,6.258333333333333,0.056770833333333215,58,48,,0,0
6.315625,6.373958333333333,0.05833333333333357,62,37,,0,0
6.4328125,6.5515625,0.11875000000000036,55,59,,0,0
6.5515625,6.6109375,0.05937500000000018,62,30,,0,0
6.670833333333333,6.725520833333333,0.0546875,62,47,,0,0
6.78125,6.8359375,0.0546875,62,35,,0,0
6.891666666666667,6.947395833333333,0.05572916666666661,63,50,,0,0
7.003125,7.058854166666666,0.05572916666666661,62,36,,0,0
7.114583333333333,7.171354166666666,0.056770833333333215,60,45,,0,0
7.2281249999999995,7.284895833333334,0.0567708333333341,62,31,,0,0
7.341666666666667,7.3984375,0.056770833333333215,62,51,,0,0
7.455208333333333,7.511979166666666,0.056770833333333215,62,36,,0,0
7.569270833333333,7.626041666666667,0.056770833333333215,58,45,,0,0
7.6828125,7.739583333333333,0.056770833333333215,62,33,,0,0
7.796354166666666,7.913020833333333,0.11666666666666714,55,62,,0,0
7.913020833333333,7.971354166666667,0.05833333333333357,62,37,,0,0
8.0296875,8.084375,0.0546875,62,50,,0,0
8.1390625,8.19375,0.0546875,62,35,,0,0
8.248958333333334,8.3046875,0.05572916666666661,63,54,,0,0
8.360937499999999,8.416666666666668,0.055729166666667496,62,39,,0,0
8.472395833333334,8.529166666666667,0.056770833333333215,60,45,,0,0
8.586458333333333,8.643229166666666,0.056770833333333215,62,37,,0,0
8.7,8.756770833333333,0.056770833333333215,62,49,,0,0
8.813541666666666,8.8703125,0.05677083333333499,62,34,,0,0
8.927083333333334,8.983854166666667,0.056770833333333215,58,45,,0,0
9.040625,9.097395833333334,0.056770833333333215,62,32,,0,0
9.1546875,9.271354166666667,0.11666666666666714,55,62,,0,0
9.271354166666667,9.3296875,0.05833333333333357,62,31,,0,0
9.388020833333334,9.443229166666667,0.05520833333333286,62,47,,0,0
9.4984375,9.553645833333333,0.05520833333333286,62,35,,0,0
9.609375,9.665104166666666,0.05572916666666572,63,50,,0,0
9.721354166666666,9.777083333333334,0.055729166666667496,62,39,,0,0
9.833333333333334,9.889583333333333,0.05624999999999858,60,45,,0,0
9.945833333333333,10.002083333333333,0.056250000000000355,62,37,,0,0
10.058854166666666,10.115625,0.056770833333333215,62,52,,0,0
10.172395833333333,10.229166666666666,0.056770833333333215,62,40,,0,0
10.2859375,10.342708333333333,0.056770833333333215,58,48,,0,0
10.399479166666666,10.45625,0.05677083333333499,62,37,,0,0
10.513541666666667,10.5703125,0.056770833333333215,60,57,,0,0
10.627083333333333,10.683854166666666,0.056770833333333215,62,41,,0,0
10.740625,10.795833333333333,0.05520833333333286,57,49,,0,0
10.8515625,10.906770833333333,0.05520833333333286,62,35,,0,0
10.963020833333333,11.018229166666666,0.05520833333333286,58,56,,0,0
11.073958333333334,11.129166666666666,0.05520833333333286,62,43,,0,0
11.184895833333334,11.240625,0.05572916666666572,55,51,,0,0
11.297395833333333,11.353125,0.055729166666667496,62,37,,0,0
11.409895833333334,11.466145833333334,0.056250000000000355,53,56,,0,0
11.522916666666667,11.5796875,0.056770833333333215,62,44,,0,0
11.636458333333334,11.69375,0.057291666666666075,51,53,,0,0
11.752604166666666,11.811979166666667,0.059375000000001066,62,39,,0,0
11.871875,11.989583333333334,0.11770833333333464,50,59,,0,0
11.990104166666667,12.048958333333333,0.05885416666666643,62,31,,0,0
12.108333333333333,12.1625,0.05416666666666714,62,47,,0,0
12.2171875,12.271354166666667,0.05416666666666714,62,35,,0,0
12.3265625,12.382291666666667,0.055729166666667496,63,53,,0,0
12.438020833333333,12.49375,0.055729166666667496,62,39,,0,0
12.549479166666666,12.60625,0.056770833333333215,60,45,,0,0
12.663020833333333,12.719791666666666,0.056770833333333215,62,37,,0,0
12.7765625,12.833333333333334,0.056770833333333215,62,49,,0,0
12.890104166666667,12.946875,0.056770833333333215,62,34,,0,0
13.003645833333334,13.060416666666667,0.056770833333333215,57,45,,0,0
13.117708333333333,13.174479166666666,0.056770833333333215,62,32,,0,0
13.23125,13.347916666666666,0.11666666666666714,50,62,,0,0
13.347916666666666,13.40625,0.05833333333333357,62,31,,0,0
13.464583333333334,13.519270833333334,0.0546875,62,47,,0,0
13.574479166666666,13.629166666666666,0.0546875,62,35,,0,0
13.684375,13.740104166666667,0.055729166666667496,63,53,,0,0
13.796354166666667,13.852083333333333,0.05572916666666572,62,39,,0,0
13.908333333333333,13.965104166666666,0.056770833333333215,60,45,,0,0
14.021875,14.078645833333333,0.056770833333333215,62,37,,0,0
14.135416666666666,14.1921875,0.056770833333333215,62,49,,0,0
14.248958333333333,14.305729166666666,0.056770833333333215,62,34,,0,0
14.363020833333334,14.419791666666667,0.056770833333333215,57,45,,0,0
14.4765625,14.533333333333333,0.056770833333333215,62,32,,0,0
14.590104166666666,14.706770833333334,0.11666666666666714,50,62,,0,0
14.706770833333334,14.765104166666667,0.05833333333333357,62,31,,0,0
14.823437499999999,14.878645833333334,0.055208333333334636,57,47,,0,0
14.934375,14.989583333333334,0.055208333333334636,62,35,,0,0
15.044791666666667,15.100520833333333,0.05572916666666572,60,52,,0,0
15.156770833333333,15.2125,0.055729166666667496,62,39,,0,0
15.268749999999999,15.325,0.056250000000000355,62,51,,0,0
15.381770833333333,15.438020833333333,0.056250000000000355,62,37,,0,0
15.494270833333333,15.551041666666666,0.056770833333333215,63,56,,0,0
15.6078125,15.664583333333333,0.056770833333333215,62,44,,0,0
15.721874999999999,15.778645833333334,0.05677083333333499,65,53,,0,0
15.835416666666667,15.8921875,0.056770833333333215,62,41,,0,0
15.948958333333334,16.00572916666667,0.056770833333333215,62,56,,0,0
16.0625,16.11927083333333,0.056770833333333215,62,48,,0,0
16.176041666666666,16.23125,0.05520833333333286,63,52,,0,0
16.2875,16.342708333333334,0.05520833333333286,62,42,,0,0
16.3984375,16.453645833333333,0.05520833333333286,60,54,,0,0
16.509375,16.56458333333333,0.05520833333333286,62,47,,0,0
16.620833333333334,16.6765625,0.05572916666666572,62,49,,0,0
16.7328125,16.788541666666667,0.05572916666666572,62,41,,0,0
16.8453125,16.9015625,0.05625000000000213,58,51,,0,0
16.958854166666665,17.015625,0.05677083333333499,62,43,,0,0
17.07239583333333,17.129166666666666,0.05677083333333499,57,48,,0,0
17.186979166666667,17.24427083333333,0.0572916666666643,62,37,,0,0
17.302083333333332,17.419791666666665,0.11770833333333286,50,59,,0,0
17.419791666666665,17.47864583333333,0.05885416666666643,62,31,,0,0
17.538020833333334,17.592708333333334,0.0546875,62,47,,0,0
17.6484375,17.703125,0.0546875,62,35,,0,0
17.758854166666666,17.81458333333333,0.05572916666666572,63,53,,0,0
17.8703125,17.926041666666666,0.05572916666666572,62,39,,0,0
17.981770833333332,18.038541666666667,0.05677083333333499,60,45,,0,0
18.0953125,18.152083333333334,0.05677083333333499,62,37,,0,0
18.208854166666665,18.265625,0.05677083333333499,62,49,,0,0
18.32239583333333,18.379166666666666,0.05677083333333499,62,34,,0,0
18.436458333333334,18.493229166666666,0.05677083333333144,57,45,,0,0
18.55,18.606770833333332,0.05677083333333144,62,32,,0,0
18.663541666666667,18.780208333333334,0.11666666666666714,50,62,,0,0
18.780208333333334,18.838541666666668,0.05833333333333357,62,31,,0,0
18.896875,18.952083333333334,0.05520833333333286,62,47,,0,0
19.0078125,19.063020833333333,0.05520833333333286,62,35,,0,0
19.118229166666666,19.17395833333333,0.05572916666666572,63,53,,0,0
19.230208333333334,19.2859375,0.05572916666666572,62,39,,0,0
19.3421875,19.398958333333333,0.05677083333333144,60,45,,0,0
19.455729166666668,19.5125,0.05677083333333144,62,37,,0,0
19.569791666666667,19.6265625,0.05677083333333144,62,49,,0,0
19.683333333333334,19.740104166666665,0.05677083333333144,62,34,,0,0
19.796875,19.85364583333333,0.05677083333333144,57,45,,0,0
19.910416666666666,19.9671875,0.05677083333333499,62,32,,0,0
20.023958333333333,20.140625,0.11666666666666714,50,62,,0,0
20.140625,20.198958333333334,0.05833333333333357,62,31,,0,0
20.257291666666667,20.3125,0.05520833333333286,60,47,,0,0
20.368229166666666,20.4234375,0.05520833333333286,62,35,,0,0
20.479166666666668,20.534895833333334,0.05572916666666572,62,52,,0,0
20.590625,20.646354166666665,0.05572916666666572,62,39,,0,0
20.702604166666667,20.758854166666666,0.05624999999999858,63,51,,0,0
20.815625,20.871875,0.05624999999999858,62,37,,0,0
20.928645833333334,20.985416666666666,0.05677083333333144,65,56,,0,0
21.0421875,21.098958333333332,0.05677083333333144,62,44,,0,0
21.155729166666667,21.2125,0.05677083333333144,62,53,,0,0
21.269270833333334,21.326041666666665,0.05677083333333144,62,41,,0,0
21.3828125,21.43958333333333,0.05677083333333144,63,59,,0,0
21.496354166666666,21.553125,0.05677083333333499,62,48,,0,0
21.610416666666666,21.665625,0.05520833333333286,60,52,,0,0
21.721354166666668,21.7765625,0.05520833333333286,62,42,,0,0
21.832291666666666,21.8875,0.05520833333333286,62,54,,0,0
21.94375,21.998958333333334,0.05520833333333286,62,47,,0,0
22.0546875,22.1109375,0.05624999999999858,58,49,,0,0
22.1671875,22.223958333333332,0.05677083333333144,62,41,,0,0
22.28125,22.338541666666668,0.05729166666666785,60,51,,0,0
22.396875,22.4546875,0.05781249999999716,62,43,,0,0
22.513541666666665,22.57239583333333,0.05885416666666643,57,48,,0,0
22.631770833333334,22.691145833333334,0.05937499999999929,62,37,,0,0
22.75,22.8671875,0.1171875,55,64,,0,0
22.8671875,22.925520833333334,0.05833333333333357,62,34,,0,0
22.8671875,22.925520833333334,0.05833333333333357,74,44,,0,0
22.984375,23.038020833333334,0.05364583333333428,62,51,,0,0
23.092708333333334,23.146354166666665,0.05364583333333073,62,38,,0,0
23.092708333333334,23.146354166666665,0.05364583333333073,74,49,,0,0
23.201041666666665,23.256770833333334,0.05572916666666927,63,58,,0,0
23.3125,23.368229166666666,0.05572916666666572,62,42,,0,0
23.3125,23.368229166666666,0.05572916666666572,74,54,,0,0
23.42395833333333,23.480729166666666,0.05677083333333499,60,49,,0,0
23.5375,23.594270833333333,0.05677083333333144,62,40,,0,0
23.5375,23.594270833333333,0.05677083333333144,74,52,,0,0
23.651041666666668,23.7078125,0.05677083333333144,62,53,,0,0
23.764583333333334,23.821354166666666,0.05677083333333144,62,37,,0,0
23.764583333333334,23.821354166666666,0.05677083333333144,74,48,,0,0
23.878645833333334,23.935416666666665,0.05677083333333144,58,49,,0,0
23.9921875,24.04895833333333,0.05677083333333144,62,35,,0,0
23.9921875,24.04895833333333,0.05677083333333144,74,45,,0,0
24.105729166666666,24.222395833333334,0.11666666666666714,55,68,,0,0
24.222395833333334,24.280729166666667,0.05833333333333357,74,44,,0,0
24.222395833333334,24.280729166666667,0.05833333333333357,62,34,,0,0
24.3390625,24.39270833333333,0.05364583333333073,62,51,,0,0
24.44739583333333,24.501041666666666,0.05364583333333428,62,38,,0,0
24.44739583333333,24.501041666666666,0.05364583333333428,74,49,,0,0
24.555729166666666,24.61145833333333,0.05572916666666572,63,58,,0,0
24.667708333333334,24.7234375,0.05572916666666572,62,42,,0,0
24.667708333333334,24.7234375,0.05572916666666572,74,54,,0,0
24.7796875,24.836458333333333,0.05677083333333144,60,49,,0,0
24.893229166666668,24.95,0.05677083333333144,62,40,,0,0
24.893229166666668,24.95,0.05677083333333144,74,52,,0,0
25.006770833333334,25.063541666666666,0.05677083333333144,62,53,,0,0
25.120833333333334,25.177604166666665,0.05677083333333144,74,48,,0,0
25.120833333333334,25.177604166666665,0.05677083333333144,62,37,,0,0
25.234375,25.29114583333333,0.05677083333333144,58,49,,0,0
25.347916666666666,25.4046875,0.05677083333333499,62,35,,0,0
25.347916666666666,25.4046875,0.05677083333333499,74,45,,0,0
25.461458333333333,25.578125,0.11666666666666714,55,68,,0,0
25.578125,25.636458333333334,0.05833333333333357,62,34,,0,0
25.578125,25.636458333333334,0.05833333333333357,74,44,,0,0
25.694791666666667,25.75,0.05520833333333286,62,51,,0,0
25.805729166666666,25.8609375,0.05520833333333286,62,38,,0,0
25.805729166666666,25.8609375,0.05520833333333286,74,49,,0,0
25.91614583333333,25.971875,0.05572916666666927,63,55,,0,0
26.028125,26.083854166666665,0.05572916666666572,62,42,,0,0
26.028125,26.083854166666665,0.05572916666666572,74,54,,0,0
26.140104166666667,26.196354166666666,0.05624999999999858,60,49,,0,0
26.253125,26.309375,0.05624999999999858,62,40,,0,0
26.253125,26.309375,0.05624999999999858,74,52,,0,0
26.365624999999998,26.422395833333333,0.05677083333333499,62,57,,0,0
26.4796875,26.536458333333332,0.05677083333333144,74,57,,0,0
26.4796875,26.536458333333332,0.05677083333333144,62,44,,0,0
26.593229166666667,26.65,0.05677083333333144,58,52,,0,0
26.706770833333334,26.763541666666665,0.05677083333333144,62,40,,0,0
26.706770833333334,26.763541666666665,0.05677083333333144,74,52,,0,0
26.8203125,26.87708333333333,0.05677083333333144,60,62,,0,0
26.933854166666666,26.990624999999998,0.05677083333333144,62,45,,0,0
26.933854166666666,26.990624999999998,0.05677083333333144,74,58,,0,0
27.047395833333333,27.102604166666666,0.05520833333333286,57,53,,0,0
27.158854166666668,27.2140625,0.05520833333333286,62,38,,0,0
27.158854166666668,27.2140625,0.05520833333333286,74,49,,0,0
27.269791666666666,27.325,0.05520833333333286,58,58,,0,0
27.380729166666665,27.435937499999998,0.05520833333333286,74,54,,0,0
27.380729166666665,27.435937499999998,0.05520833333333286,62,42,,0,0
27.4921875,27.547916666666666,0.05572916666666572,60,53,,0,0
27.604166666666668,27.659895833333334,0.05572916666666572,74,48,,0,0
27.604166666666668,27.659895833333334,0.05572916666666572,62,37,,0,0
27.716666666666665,27.772916666666667,0.05625000000000213,57,56,,0,0
27.83020833333333,27.886979166666666,0.05677083333333499,62,41,,0,0
27.83020833333333,27.886979166666666,0.05677083333333499,74,53,,0,0
27.943749999999998,28.000520833333333,0.05677083333333499,58,52,,0,0
28.058333333333334,28.11875,0.06041666666666501,62,40,,0,0
28.058333333333334,28.11875,0.06041666666666501,74,52,,0,0
28.1796875,28.296354166666667,0.11666666666666714,55,64,,0,0
28.296354166666667,28.3546875,0.05833333333333357,62,34,,0,0
28.296354166666667,28.3546875,0.05833333333333357,74,44,,0,0
28.413020833333334,28.467708333333334,0.0546875,62,51,,0,0
28.5234375,28.578125,0.0546875,74,49,,0,0
28.5234375,28.578125,0.0546875,62,38,,0,0
28.633854166666666,28.68958333333333,0.05572916666666572,63,58,,0,0
28.7453125,28.801041666666666,0.05572916666666572,62,42,,0,0
28.7453125,28.801041666666666,0.05572916666666572,74,54,,0,0
28.856770833333332,28.913541666666667,0.05677083333333499,60,49,,0,0
28.9703125,29.027083333333334,0.05677083333333499,62,40,,0,0
28.9703125,29.027083333333334,0.05677083333333499,74,52,,0,0
29.083854166666665,29.140625,0.05677083333333499,62,53,,0,0
29.19739583333333,29.254166666666666,0.05677083333333499,62,37,,0,0
29.19739583333333,29.254166666666666,0.05677083333333499,74,48,,0,0
29.311458333333334,29.368229166666666,0.05677083333333144,58,49,,0,0
29.425,29.481770833333332,0.05677083333333144,62,35,,0,0
29.425,29.481770833333332,0.05677083333333144,74,45,,0,0
29.538541666666667,29.655208333333334,0.11666666666666714,55,68,,0,0
29.655208333333334,29.713541666666668,0.05833333333333357,62,34,,0,0
29.655208333333334,29.713541666666668,0.05833333333333357,74,44,,0,0
29.771874999999998,29.827083333333334,0.05520833333333641,62,51,,0,0
29.8828125,29.938020833333333,0.05520833333333286,62,38,,0,0
29.8828125,29.938020833333333,0.05520833333333286,74,49,,0,0
29.993229166666666,30.04895833333333,0.05572916666666572,63,58,,0,0
30.105208333333334,30.1609375,0.05572916666666572,62,42,,0,0
30.105208333333334,30.1609375,0.05572916666666572,74,54,,0,0
30.217187499999998,30.273958333333333,0.05677083333333499,60,49,,0,0
30.330729166666668,30.3875,0.05677083333333144,62,40,,0,0
30.330729166666668,30.3875,0.05677083333333144,74,52,,0,0
30.444270833333334,30.501041666666666,0.05677083333333144,62,53,,0,0
30.558333333333334,30.615104166666665,0.05677083333333144,62,37,,0,0
30.558333333333334,30.615104166666665,0.05677083333333144,74,48,,0,0
30.671875,30.72864583333333,0.05677083333333144,58,49,,0,0
30.785416666666666,30.842187499999998,0.05677083333333144,62,35,,0,0
30.785416666666666,30.842187499999998,0.05677083333333144,74,45,,0,0
30.898958333333333,31.015625,0.11666666666666714,55,68,,0,0
31.015625,31.073958333333334,0.05833333333333357,74,44,,0,0
31.015625,31.073958333333334,0.05833333333333357,62,34,,0,0
31.132291666666667,31.1875,0.05520833333333286,62,51,,0,0
31.243229166666666,31.2984375,0.05520833333333286,62,38,,0,0
31.243229166666666,31.2984375,0.05520833333333286,74,49,,0,0
31.354166666666668,31.409895833333334,0.05572916666666572,63,55,,0,0
31.465625,31.521354166666665,0.05572916666666572,62,42,,0,0
31.465625,31.521354166666665,0.05572916666666572,74,54,,0,0
31.577604166666667,31.633854166666666,0.05624999999999858,60,49,,0,0
31.690625,31.746875,0.05624999999999858,62,40,,0,0
31.690625,31.746875,0.05624999999999858,74,52,,0,0
31.803124999999998,31.859895833333333,0.05677083333333499,62,57,,0,0
31.9171875,31.973958333333332,0.05677083333333144,74,57,,0,0
31.9171875,31.973958333333332,0.05677083333333144,62,44,,0,0
32.03072916666667,32.0875,0.05677083333333144,58,52,,0,0
32.14427083333334,32.20104166666667,0.05677083333333144,74,52,,0,0
32.14427083333334,32.20104166666667,0.05677083333333144,62,40,,0,0
32.2578125,32.31458333333333,0.05677083333333144,60,62,,0,0
